Capital,Time
99000.0,2024-12-04 16:15:00+00:00
100000.0,2024-12-05 12:00:00+00:00
101000.0,2024-12-07 14:30:00+00:00
102000.0,2024-12-09 20:30:00+00:00
103000.0,2024-12-10 12:45:00+00:00
104000.0,2024-12-12 05:30:00+00:00
103000.0,2024-12-12 11:00:00+00:00
104000.0,2024-12-13 15:45:00+00:00
105000.0,2024-12-15 07:30:00+00:00
106000.0,2024-12-17 00:45:00+00:00
107000.0,2024-12-18 19:45:00+00:00
108000.0,2024-12-19 15:00:00+00:00
109000.0,2024-12-22 14:45:00+00:00
108000.0,2024-12-23 03:15:00+00:00
109000.0,2024-12-24 09:30:00+00:00
110000.0,2024-12-24 15:15:00+00:00
111000.0,2024-12-25 01:30:00+00:00
110000.0,2024-12-26 05:00:00+00:00
109000.0,2024-12-28 12:00:00+00:00
110000.0,2024-12-29 07:00:00+00:00
110465.26303646414,2025-01-03 08:15:00+00:00
111465.26303646414,2025-01-03 09:15:00+00:00
112465.26303646414,2025-01-03 16:15:00+00:00
113465.26303646414,2025-01-07 15:00:00+00:00
112465.26303646414,2025-01-08 14:15:00+00:00
111465.26303646414,2025-01-09 15:45:00+00:00
112465.26303646414,2025-01-13 00:15:00+00:00
113465.26303646414,2025-01-15 13:30:00+00:00
114465.26303646414,2025-01-18 03:15:00+00:00
115465.26303646414,2025-01-22 13:15:00+00:00
114465.26303646414,2025-01-26 09:30:00+00:00
115465.26303646414,2025-01-29 13:00:00+00:00
114465.26303646414,2025-01-31 00:15:00+00:00
113465.26303646414,2025-01-31 18:00:00+00:00
114465.26303646414,2025-02-01 10:45:00+00:00
115465.26303646414,2025-02-01 19:00:00+00:00
116465.26303646414,2025-02-02 03:45:00+00:00
117465.26303646414,2025-02-02 16:30:00+00:00
118465.26303646414,2025-02-06 12:30:00+00:00
117465.26303646414,2025-02-07 02:15:00+00:00
116465.26303646414,2025-02-08 10:15:00+00:00
117465.26303646414,2025-02-11 06:45:00+00:00
118465.26303646414,2025-02-12 13:30:00+00:00
117465.26303646414,2025-02-12 22:30:00+00:00
118465.26303646414,2025-02-14 17:30:00+00:00
119465.26303646414,2025-02-17 04:45:00+00:00
118465.26303646414,2025-02-17 12:15:00+00:00
119401.55647769074,2025-02-18 04:45:00+00:00
120401.55647769074,2025-02-18 05:15:00+00:00
119401.55647769074,2025-02-19 09:45:00+00:00
120401.55647769074,2025-02-20 14:00:00+00:00
120835.31139975872,2025-02-20 23:15:00+00:00
121835.31139975872,2025-02-21 09:00:00+00:00
120835.31139975872,2025-02-21 14:30:00+00:00
119835.31139975872,2025-02-24 00:00:00+00:00
120263.47031869518,2025-02-24 14:30:00+00:00
121263.47031869518,2025-02-24 15:00:00+00:00
122263.47031869518,2025-02-26 12:45:00+00:00
123263.47031869518,2025-02-28 01:30:00+00:00
124263.47031869518,2025-03-01 22:00:00+00:00
123263.47031869518,2025-03-07 13:30:00+00:00
124263.47031869518,2025-03-08 15:00:00+00:00
124639.7981087626,2025-03-10 08:30:00+00:00
123639.7981087626,2025-03-10 09:15:00+00:00
124639.7981087626,2025-03-12 08:45:00+00:00
123639.7981087626,2025-03-13 16:15:00+00:00
124045.3464459546,2025-03-15 20:15:00+00:00
124208.42559808456,2025-03-16 04:00:00+00:00
123208.42559808456,2025-03-16 09:30:00+00:00
124208.42559808456,2025-03-18 10:15:00+00:00
125208.42559808456,2025-03-18 13:30:00+00:00
124208.42559808456,2025-03-20 10:00:00+00:00
123208.42559808456,2025-03-21 18:30:00+00:00
124208.42559808456,2025-03-24 03:00:00+00:00
123208.42559808456,2025-03-25 02:00:00+00:00
122208.42559808456,2025-03-27 02:00:00+00:00
122432.9276947608,2025-03-28 03:00:00+00:00
123432.9276947608,2025-03-28 04:30:00+00:00
124432.9276947608,2025-03-29 02:45:00+00:00
125432.9276947608,2025-03-29 11:30:00+00:00
126432.9276947608,2025-03-29 21:30:00+00:00
127432.9276947608,2025-04-01 08:15:00+00:00
126432.9276947608,2025-04-02 02:00:00+00:00
127432.9276947608,2025-04-02 20:00:00+00:00
128432.9276947608,2025-04-03 10:30:00+00:00
127432.9276947608,2025-04-04 07:15:00+00:00
126432.9276947608,2025-04-05 11:00:00+00:00
127432.9276947608,2025-04-06 11:15:00+00:00
128432.9276947608,2025-04-08 11:45:00+00:00
129432.9276947608,2025-04-12 20:30:00+00:00
128432.9276947608,2025-04-14 15:00:00+00:00
127432.9276947608,2025-04-16 14:30:00+00:00
128432.9276947608,2025-04-17 06:15:00+00:00
128432.9276947608,2025-04-18 07:45:00+00:00
127432.9276947608,2025-04-18 15:00:00+00:00
128432.9276947608,2025-04-23 04:45:00+00:00
127432.9276947608,2025-04-23 13:45:00+00:00
128200.16866770523,2025-04-25 11:45:00+00:00
127200.16866770523,2025-04-25 13:30:00+00:00
126200.16866770523,2025-04-27 08:15:00+00:00
125200.16866770523,2025-04-29 05:00:00+00:00
124200.16866770523,2025-04-30 03:15:00+00:00
125200.16866770523,2025-05-01 09:30:00+00:00
124200.16866770523,2025-05-01 18:15:00+00:00
123200.16866770523,2025-05-05 04:15:00+00:00
124200.16866770523,2025-05-08 08:45:00+00:00
125200.16866770523,2025-05-08 21:15:00+00:00
126200.16866770523,2025-05-09 07:15:00+00:00
127200.16866770523,2025-05-12 13:00:00+00:00
128200.16866770523,2025-05-12 14:15:00+00:00
129200.16866770523,2025-05-13 02:15:00+00:00
128200.16866770523,2025-05-14 08:45:00+00:00
129200.16866770523,2025-05-15 07:00:00+00:00
129494.57519394779,2025-05-15 14:00:00+00:00
128494.57519394779,2025-05-15 16:45:00+00:00
127494.57519394779,2025-05-16 11:00:00+00:00
128494.57519394779,2025-05-17 16:45:00+00:00
127494.57519394779,2025-05-18 03:00:00+00:00
128494.57519394779,2025-05-20 13:45:00+00:00
129494.57519394779,2025-05-21 14:45:00+00:00
130494.57519394779,2025-05-23 01:30:00+00:00
131494.5751939478,2025-05-23 09:00:00+00:00
130494.57519394779,2025-05-24 10:30:00+00:00
131494.5751939478,2025-05-25 08:45:00+00:00
130494.57519394779,2025-05-25 22:00:00+00:00
129494.57519394779,2025-05-28 23:15:00+00:00
130494.57519394779,2025-05-30 00:45:00+00:00
131494.5751939478,2025-05-30 09:30:00+00:00
132494.5751939478,2025-05-30 23:15:00+00:00
131494.5751939478,2025-05-31 15:15:00+00:00
130494.57519394779,2025-06-02 21:00:00+00:00
131494.5751939478,2025-06-03 14:45:00+00:00
130494.57519394779,2025-06-04 15:30:00+00:00
131494.5751939478,2025-06-07 00:00:00+00:00
132494.5751939478,2025-06-09 09:30:00+00:00
133494.5751939478,2025-06-09 21:15:00+00:00
134494.5751939478,2025-06-10 11:30:00+00:00
133494.5751939478,2025-06-11 12:15:00+00:00
134494.5751939478,2025-06-12 19:45:00+00:00
134546.74209291916,2025-06-13 14:15:00+00:00
133546.74209291916,2025-06-13 15:00:00+00:00
132546.74209291916,2025-06-14 21:45:00+00:00
133546.74209291916,2025-06-16 01:30:00+00:00
134546.74209291916,2025-06-18 13:15:00+00:00
133546.74209291916,2025-06-18 20:45:00+00:00
132546.74209291916,2025-06-21 08:45:00+00:00
133546.74209291916,2025-06-21 21:15:00+00:00
134546.74209291916,2025-06-22 10:00:00+00:00
135546.74209291916,2025-06-24 06:45:00+00:00
135772.56557225707,2025-06-25 13:00:00+00:00
134772.56557225707,2025-06-25 14:15:00+00:00
133772.56557225707,2025-06-26 20:30:00+00:00
132772.56557225707,2025-06-28 05:15:00+00:00
133772.56557225707,2025-06-29 22:15:00+00:00
134772.56557225707,2025-07-03 05:30:00+00:00
135772.56557225707,2025-07-04 14:00:00+00:00
136772.56557225707,2025-07-06 21:30:00+00:00
135772.56557225707,2025-07-08 10:00:00+00:00
136772.56557225707,2025-07-09 05:30:00+00:00
137772.56557225707,2025-07-09 19:45:00+00:00
138772.56557225707,2025-07-10 02:15:00+00:00
139772.56557225707,2025-07-10 21:15:00+00:00
139786.11926009608,2025-07-11 09:15:00+00:00
140786.11926009608,2025-07-11 14:15:00+00:00
139786.11926009608,2025-07-14 15:15:00+00:00
138786.11926009608,2025-07-15 17:45:00+00:00
139786.11926009608,2025-07-17 09:00:00+00:00
138786.11926009608,2025-07-17 20:00:00+00:00
137786.11926009608,2025-07-18 14:30:00+00:00
136786.11926009608,2025-07-19 20:45:00+00:00
135786.11926009608,2025-07-20 22:00:00+00:00
136264.5543068263,2025-07-22 01:15:00+00:00
137264.5543068263,2025-07-22 23:30:00+00:00
138264.5543068263,2025-07-24 05:00:00+00:00
137264.5543068263,2025-07-25 18:30:00+00:00
138264.5543068263,2025-07-28 05:45:00+00:00
139264.5543068263,2025-07-29 14:00:00+00:00
140264.5543068263,2025-07-30 11:15:00+00:00
139264.5543068263,2025-07-31 19:45:00+00:00
140264.5543068263,2025-08-01 08:00:00+00:00
140583.66731674442,2025-08-01 17:00:00+00:00
141583.66731674442,2025-08-01 22:15:00+00:00
140583.66731674442,2025-08-02 08:00:00+00:00
141583.66731674442,2025-08-04 13:30:00+00:00
142067.6746959539,2025-08-05 06:00:00+00:00
141067.6746959539,2025-08-05 07:30:00+00:00
140067.6746959539,2025-08-06 14:00:00+00:00
141067.6746959539,2025-08-07 20:00:00+00:00
141534.8119736715,2025-08-08 11:00:00+00:00
142080.37643204097,2025-08-08 13:45:00+00:00
141080.37643204097,2025-08-08 14:30:00+00:00
142080.37643204097,2025-08-09 05:00:00+00:00
142254.37019914054,2025-08-09 17:45:00+00:00
142492.18561125002,2025-08-10 00:30:00+00:00
143492.18561125002,2025-08-10 02:00:00+00:00
144492.18561125002,2025-08-11 21:30:00+00:00
143492.18561125002,2025-08-12 12:30:00+00:00
144492.18561125002,2025-08-13 13:15:00+00:00
145492.18561125002,2025-08-14 02:45:00+00:00
146492.18561125002,2025-08-15 13:30:00+00:00
146474.49642325353,2025-08-17 11:30:00+00:00
146776.3191116697,2025-08-17 14:30:00+00:00
145776.3191116697,2025-08-17 18:45:00+00:00
146776.3191116697,2025-08-19 18:45:00+00:00
147519.68002655223,2025-08-21 03:00:00+00:00
146519.68002655223,2025-08-21 09:00:00+00:00
147519.68002655223,2025-08-22 11:00:00+00:00
148519.68002655223,2025-08-23 04:30:00+00:00
149519.68002655223,2025-08-24 01:15:00+00:00
150519.68002655223,2025-08-25 19:45:00+00:00
149519.68002655223,2025-08-26 12:30:00+00:00
150519.68002655223,2025-08-27 14:30:00+00:00
151519.68002655223,2025-08-28 05:00:00+00:00
150519.68002655223,2025-08-28 15:30:00+00:00
149519.68002655223,2025-08-29 07:00:00+00:00
150519.68002655223,2025-08-31 13:30:00+00:00
151519.68002655223,2025-09-02 23:00:00+00:00
151090.64146897537,2025-09-03 10:30:00+00:00
150090.64146897537,2025-09-04 02:30:00+00:00
151090.64146897537,2025-09-04 23:45:00+00:00
150090.64146897537,2025-09-05 07:00:00+00:00
151090.64146897537,2025-09-06 17:45:00+00:00
152090.64146897537,2025-09-08 09:45:00+00:00
151090.64146897537,2025-09-09 00:30:00+00:00
152090.64146897537,2025-09-10 02:15:00+00:00
152329.36277003272,2025-09-11 09:00:00+00:00
153329.36277003272,2025-09-11 12:00:00+00:00
152329.36277003272,2025-09-13 13:45:00+00:00
151329.36277003272,2025-09-14 20:30:00+00:00
152329.36277003272,2025-09-15 07:30:00+00:00
151329.36277003272,2025-09-16 15:45:00+00:00
150329.36277003272,2025-09-17 10:45:00+00:00
149329.36277003272,2025-09-17 18:00:00+00:00
150329.36277003272,2025-09-18 13:30:00+00:00
151329.36277003272,2025-09-19 15:00:00+00:00
152003.11283347663,2025-09-23 01:00:00+00:00
153003.11283347663,2025-09-23 02:15:00+00:00
152003.11283347663,2025-09-23 16:45:00+00:00
152093.7093654404,2025-09-24 03:00:00+00:00
153093.7093654404,2025-09-24 03:15:00+00:00
154093.7093654404,2025-09-25 01:00:00+00:00
155093.7093654404,2025-09-25 17:30:00+00:00
155656.51390331096,2025-09-26 09:30:00+00:00
154656.51390331096,2025-09-26 12:30:00+00:00
155656.51390331096,2025-09-27 22:00:00+00:00
156656.51390331096,2025-09-29 14:15:00+00:00
155656.51390331096,2025-09-30 08:30:00+00:00
156656.51390331096,2025-10-01 23:45:00+00:00
157656.51390331096,2025-10-02 05:15:00+00:00
158146.5078270761,2025-10-02 15:45:00+00:00
159146.5078270761,2025-10-02 18:00:00+00:00
158146.5078270761,2025-10-03 06:45:00+00:00
159146.5078270761,2025-10-06 17:15:00+00:00
160146.5078270761,2025-10-08 00:30:00+00:00
159146.5078270761,2025-10-08 14:00:00+00:00
158146.5078270761,2025-10-09 08:00:00+00:00
157146.5078270761,2025-10-12 04:15:00+00:00
156146.5078270761,2025-10-13 11:15:00+00:00
155146.5078270761,2025-10-15 13:45:00+00:00
155297.06537865792,2025-10-16 08:15:00+00:00
156297.06537865792,2025-10-16 09:30:00+00:00
157297.06537865792,2025-10-17 06:45:00+00:00
156297.06537865792,2025-10-18 06:45:00+00:00
155297.06537865792,2025-10-19 08:15:00+00:00
156297.06537865792,2025-10-20 03:45:00+00:00
155297.06537865792,2025-10-21 02:00:00+00:00
156297.06537865792,2025-10-22 19:45:00+00:00
157297.06537865792,2025-10-24 00:45:00+00:00
158297.06537865792,2025-10-24 12:30:00+00:00
159297.06537865792,2025-10-27 00:30:00+00:00
