Capital,Time
101000.0,2024-12-04 15:00:00+00:00
100884.38734271581,2024-12-05 02:15:00+00:00
101884.38734271581,2024-12-05 03:00:00+00:00
102884.38734271581,2024-12-06 14:45:00+00:00
101884.38734271581,2024-12-11 03:00:00+00:00
102884.38734271581,2024-12-12 02:45:00+00:00
103884.38734271581,2024-12-12 03:45:00+00:00
104884.38734271581,2024-12-12 15:00:00+00:00
103884.38734271581,2024-12-14 12:45:00+00:00
102884.38734271581,2024-12-15 04:15:00+00:00
103884.38734271581,2024-12-15 23:15:00+00:00
102884.38734271581,2024-12-17 15:15:00+00:00
101884.38734271581,2024-12-18 19:00:00+00:00
102884.38734271581,2024-12-19 14:45:00+00:00
101884.38734271581,2024-12-22 09:30:00+00:00
102884.38734271581,2024-12-22 20:00:00+00:00
101884.38734271581,2024-12-23 03:15:00+00:00
102884.38734271581,2024-12-23 21:00:00+00:00
103884.38734271581,2024-12-24 14:30:00+00:00
104884.38734271581,2024-12-25 10:15:00+00:00
105884.38734271581,2024-12-27 07:30:00+00:00
104884.38734271581,2024-12-28 14:00:00+00:00
103884.38734271581,2024-12-30 13:15:00+00:00
102884.38734271581,2025-01-03 08:30:00+00:00
103884.38734271581,2025-01-05 00:15:00+00:00
104884.38734271581,2025-01-08 06:30:00+00:00
103884.38734271581,2025-01-08 15:00:00+00:00
104884.38734271581,2025-01-17 08:45:00+00:00
104811.84823775396,2025-01-17 20:00:00+00:00
105811.84823775396,2025-01-17 20:30:00+00:00
104811.84823775396,2025-01-19 01:00:00+00:00
103811.84823775396,2025-01-21 17:45:00+00:00
102811.84823775396,2025-01-22 06:15:00+00:00
101811.84823775396,2025-01-23 14:30:00+00:00
102811.84823775396,2025-01-24 05:45:00+00:00
103811.84823775396,2025-01-29 13:15:00+00:00
104811.84823775396,2025-02-01 19:15:00+00:00
105210.81776898551,2025-02-02 07:15:00+00:00
105855.48313865234,2025-02-02 15:15:00+00:00
106855.48313865234,2025-02-02 16:45:00+00:00
105855.48313865234,2025-02-07 07:15:00+00:00
106855.48313865234,2025-02-08 15:30:00+00:00
105855.48313865234,2025-02-08 18:15:00+00:00
106855.48313865234,2025-02-11 00:30:00+00:00
105855.48313865234,2025-02-11 13:30:00+00:00
104855.48313865234,2025-02-12 12:15:00+00:00
105855.48313865234,2025-02-14 03:45:00+00:00
104855.48313865234,2025-02-16 05:45:00+00:00
105855.48313865234,2025-02-16 23:00:00+00:00
104855.48313865234,2025-02-17 08:00:00+00:00
103855.48313865234,2025-02-18 05:15:00+00:00
104855.48313865234,2025-02-18 16:30:00+00:00
105855.48313865234,2025-02-20 04:15:00+00:00
106855.48313865234,2025-02-21 09:15:00+00:00
107855.48313865234,2025-02-23 06:30:00+00:00
108855.48313865234,2025-02-26 12:45:00+00:00
109855.48313865234,2025-02-28 01:30:00+00:00
110855.48313865234,2025-03-01 10:15:00+00:00
109855.48313865234,2025-03-02 13:15:00+00:00
108855.48313865234,2025-03-06 17:00:00+00:00
107855.48313865234,2025-03-08 12:15:00+00:00
108855.48313865234,2025-03-13 08:15:00+00:00
109855.48313865234,2025-03-15 16:30:00+00:00
108855.48313865234,2025-03-16 01:15:00+00:00
109454.60664573284,2025-03-19 22:30:00+00:00
108454.60664573284,2025-03-20 05:15:00+00:00
109454.60664573284,2025-03-21 12:30:00+00:00
108454.60664573284,2025-03-25 01:30:00+00:00
109454.60664573284,2025-03-26 13:45:00+00:00
109807.6435975277,2025-03-28 03:15:00+00:00
110807.6435975277,2025-03-28 04:30:00+00:00
111807.6435975277,2025-03-29 09:30:00+00:00
112807.6435975277,2025-03-29 16:45:00+00:00
113807.6435975277,2025-03-30 13:30:00+00:00
114807.6435975277,2025-03-30 22:00:00+00:00
115807.6435975277,2025-04-01 06:30:00+00:00
116807.6435975277,2025-04-01 15:15:00+00:00
117807.6435975277,2025-04-02 15:30:00+00:00
118807.6435975277,2025-04-02 20:00:00+00:00
119807.6435975277,2025-04-03 11:00:00+00:00
120807.6435975277,2025-04-06 16:45:00+00:00
121807.6435975277,2025-04-12 08:00:00+00:00
122807.6435975277,2025-04-12 13:00:00+00:00
121807.6435975277,2025-04-13 01:45:00+00:00
120807.6435975277,2025-04-15 14:15:00+00:00
121807.6435975277,2025-04-16 05:15:00+00:00
120807.6435975277,2025-04-16 14:30:00+00:00
119807.6435975277,2025-04-21 00:15:00+00:00
118807.6435975277,2025-04-22 01:15:00+00:00
119807.6435975277,2025-04-22 21:45:00+00:00
118807.6435975277,2025-04-23 15:15:00+00:00
119807.6435975277,2025-04-26 08:15:00+00:00
118807.6435975277,2025-04-27 13:00:00+00:00
119807.6435975277,2025-04-28 00:00:00+00:00
118807.6435975277,2025-04-30 12:30:00+00:00
117807.6435975277,2025-05-02 07:00:00+00:00
116807.6435975277,2025-05-04 05:45:00+00:00
117807.6435975277,2025-05-04 23:30:00+00:00
118807.6435975277,2025-05-05 13:30:00+00:00
119807.6435975277,2025-05-06 11:30:00+00:00
118807.6435975277,2025-05-06 22:00:00+00:00
117807.6435975277,2025-05-07 14:45:00+00:00
116807.6435975277,2025-05-13 11:15:00+00:00
115807.6435975277,2025-05-14 02:00:00+00:00
116807.6435975277,2025-05-15 14:45:00+00:00
117406.51919347077,2025-05-17 22:15:00+00:00
116406.51919347077,2025-05-18 05:00:00+00:00
117406.51919347077,2025-05-20 02:15:00+00:00
118406.51919347077,2025-05-23 23:30:00+00:00
119406.51919347077,2025-05-24 21:15:00+00:00
120406.51919347077,2025-05-25 08:45:00+00:00
119406.51919347077,2025-05-27 01:15:00+00:00
120406.51919347077,2025-05-27 08:15:00+00:00
119406.51919347077,2025-05-28 10:00:00+00:00
120406.51919347077,2025-05-30 00:45:00+00:00
121406.51919347077,2025-05-30 12:15:00+00:00
122406.51919347077,2025-05-30 23:15:00+00:00
123406.51919347077,2025-06-01 09:30:00+00:00
122406.51919347077,2025-06-01 14:00:00+00:00
121406.51919347077,2025-06-02 13:30:00+00:00
122406.51919347077,2025-06-02 22:15:00+00:00
123406.51919347077,2025-06-03 14:45:00+00:00
124406.51919347077,2025-06-04 15:45:00+00:00
125406.51919347077,2025-06-05 10:30:00+00:00
126406.51919347077,2025-06-05 16:45:00+00:00
127406.51919347077,2025-06-07 00:15:00+00:00
128406.51919347077,2025-06-10 11:15:00+00:00
129406.51919347077,2025-06-10 19:30:00+00:00
130406.51919347077,2025-06-11 12:30:00+00:00
131406.51919347077,2025-06-16 14:30:00+00:00
130406.51919347077,2025-06-19 00:30:00+00:00
131406.51919347077,2025-06-22 13:15:00+00:00
130406.51919347077,2025-06-23 13:30:00+00:00
129406.51919347077,2025-06-24 08:00:00+00:00
128406.51919347077,2025-06-25 09:30:00+00:00
127406.51919347077,2025-06-26 10:00:00+00:00
128406.51919347077,2025-06-27 01:00:00+00:00
129406.51919347077,2025-07-03 09:30:00+00:00
128406.51919347077,2025-07-03 15:00:00+00:00
129406.51919347077,2025-07-04 14:00:00+00:00
130406.51919347077,2025-07-06 21:30:00+00:00
129406.51919347077,2025-07-07 12:15:00+00:00
128406.51919347077,2025-07-09 03:45:00+00:00
129406.51919347077,2025-07-09 18:00:00+00:00
130406.51919347077,2025-07-11 05:30:00+00:00
129406.51919347077,2025-07-11 15:45:00+00:00
128406.51919347077,2025-07-13 21:30:00+00:00
127406.51919347077,2025-07-15 01:15:00+00:00
128406.51919347077,2025-07-15 23:00:00+00:00
129350.91033437733,2025-07-16 12:30:00+00:00
130350.91033437733,2025-07-16 14:30:00+00:00
131350.91033437732,2025-07-17 06:15:00+00:00
132350.91033437732,2025-07-17 21:15:00+00:00
131350.91033437732,2025-07-18 14:30:00+00:00
132350.91033437732,2025-07-20 01:00:00+00:00
133350.91033437732,2025-07-21 11:15:00+00:00
132350.91033437732,2025-07-21 16:15:00+00:00
133350.91033437732,2025-07-23 13:45:00+00:00
134350.91033437732,2025-07-24 07:00:00+00:00
135350.91033437732,2025-07-26 22:15:00+00:00
136350.91033437732,2025-07-27 10:30:00+00:00
136967.76585445166,2025-07-27 22:00:00+00:00
137967.76585445166,2025-07-28 02:30:00+00:00
136967.76585445166,2025-07-28 13:15:00+00:00
135967.76585445166,2025-07-29 06:30:00+00:00
136967.76585445166,2025-07-30 11:45:00+00:00
137967.76585445166,2025-08-01 08:00:00+00:00
138967.76585445166,2025-08-01 18:00:00+00:00
139967.76585445166,2025-08-02 06:30:00+00:00
140967.76585445166,2025-08-04 13:30:00+00:00
139967.76585445166,2025-08-05 03:15:00+00:00
138967.76585445166,2025-08-06 05:15:00+00:00
137967.76585445166,2025-08-07 01:45:00+00:00
138967.76585445166,2025-08-07 22:45:00+00:00
139967.76585445166,2025-08-08 18:15:00+00:00
140967.76585445166,2025-08-09 04:30:00+00:00
141967.76585445166,2025-08-09 19:45:00+00:00
140967.76585445166,2025-08-10 03:00:00+00:00
141967.76585445166,2025-08-11 01:15:00+00:00
142967.76585445166,2025-08-12 12:30:00+00:00
143967.76585445166,2025-08-13 10:00:00+00:00
142967.76585445166,2025-08-14 12:30:00+00:00
143967.76585445166,2025-08-15 13:30:00+00:00
144883.27792383687,2025-08-17 01:00:00+00:00
143883.27792383687,2025-08-17 03:00:00+00:00
142883.27792383687,2025-08-17 16:45:00+00:00
143883.27792383687,2025-08-20 13:45:00+00:00
144883.27792383687,2025-08-22 14:00:00+00:00
143883.27792383687,2025-08-25 16:45:00+00:00
144883.27792383687,2025-08-25 19:30:00+00:00
143883.27792383687,2025-08-27 19:00:00+00:00
144883.27792383687,2025-08-28 15:15:00+00:00
145883.27792383687,2025-08-29 07:00:00+00:00
146883.27792383687,2025-08-29 14:00:00+00:00
147883.27792383687,2025-08-30 01:45:00+00:00
148883.27792383687,2025-08-31 12:45:00+00:00
147883.27792383687,2025-09-03 02:15:00+00:00
146883.27792383687,2025-09-04 14:00:00+00:00
145883.27792383687,2025-09-07 01:45:00+00:00
146883.27792383687,2025-09-11 03:45:00+00:00
147151.1225343921,2025-09-12 13:45:00+00:00
148151.1225343921,2025-09-12 17:15:00+00:00
147151.1225343921,2025-09-15 04:00:00+00:00
148151.1225343921,2025-09-16 13:30:00+00:00
149151.1225343921,2025-09-18 16:45:00+00:00
150151.1225343921,2025-09-19 15:15:00+00:00
149999.5163226572,2025-09-23 01:00:00+00:00
150999.5163226572,2025-09-23 03:00:00+00:00
151999.5163226572,2025-09-25 17:15:00+00:00
150999.5163226572,2025-09-29 13:00:00+00:00
151999.5163226572,2025-09-29 20:30:00+00:00
150999.5163226572,2025-09-30 14:00:00+00:00
151999.5163226572,2025-10-02 00:00:00+00:00
150999.5163226572,2025-10-02 15:00:00+00:00
151999.5163226572,2025-10-02 19:00:00+00:00
152999.5163226572,2025-10-03 03:00:00+00:00
151999.5163226572,2025-10-04 15:30:00+00:00
152999.5163226572,2025-10-06 00:15:00+00:00
151999.5163226572,2025-10-07 08:00:00+00:00
152323.02653630852,2025-10-08 03:15:00+00:00
151323.02653630852,2025-10-08 10:45:00+00:00
152323.02653630852,2025-10-09 08:15:00+00:00
153323.02653630852,2025-10-09 16:45:00+00:00
153884.68335562467,2025-10-10 06:45:00+00:00
152884.68335562467,2025-10-10 13:30:00+00:00
151884.68335562467,2025-10-13 11:15:00+00:00
150884.68335562467,2025-10-16 10:00:00+00:00
151884.68335562467,2025-10-16 16:00:00+00:00
152884.68335562467,2025-10-17 06:30:00+00:00
151884.68335562467,2025-10-18 07:00:00+00:00
152884.68335562467,2025-10-19 08:15:00+00:00
151884.68335562467,2025-10-19 23:30:00+00:00
150884.68335562467,2025-10-21 04:00:00+00:00
151884.68335562467,2025-10-22 11:00:00+00:00
152884.68335562467,2025-10-22 21:00:00+00:00
153884.68335562467,2025-10-24 04:15:00+00:00
154884.68335562467,2025-10-24 12:30:00+00:00
