Capital,Time
101000.0,2024-12-03 06:30:00+00:00
101515.69160370163,2024-12-05 18:45:00+00:00
102515.69160370163,2024-12-05 22:15:00+00:00
103515.69160370163,2024-12-07 16:30:00+00:00
103962.51868910235,2024-12-08 08:00:00+00:00
104040.21382079957,2024-12-08 15:00:00+00:00
103040.21382079957,2024-12-08 16:00:00+00:00
104040.21382079957,2024-12-08 16:30:00+00:00
104675.15540993745,2024-12-12 19:15:00+00:00
105675.15540993745,2024-12-12 22:00:00+00:00
106675.15540993745,2024-12-13 14:30:00+00:00
107675.15540993745,2024-12-14 12:45:00+00:00
108675.15540993745,2024-12-18 03:45:00+00:00
107675.15540993745,2024-12-18 18:45:00+00:00
108675.15540993745,2024-12-18 20:00:00+00:00
107675.15540993745,2024-12-19 16:45:00+00:00
106675.15540993745,2024-12-23 03:00:00+00:00
107675.15540993745,2024-12-23 21:00:00+00:00
108675.15540993745,2024-12-24 13:45:00+00:00
109624.04508911194,2024-12-25 06:45:00+00:00
108624.04508911194,2024-12-25 10:15:00+00:00
109624.04508911194,2024-12-26 04:00:00+00:00
110624.04508911194,2024-12-27 09:00:00+00:00
109624.04508911194,2024-12-27 14:30:00+00:00
108624.04508911194,2024-12-31 01:00:00+00:00
109624.04508911194,2025-01-02 04:30:00+00:00
108624.04508911194,2025-01-06 08:30:00+00:00
109624.04508911194,2025-01-08 17:00:00+00:00
108624.04508911194,2025-01-10 07:00:00+00:00
109624.04508911194,2025-01-13 03:45:00+00:00
110624.04508911194,2025-01-19 07:00:00+00:00
111624.04508911194,2025-01-24 14:30:00+00:00
112624.04508911194,2025-01-28 12:45:00+00:00
113624.04508911194,2025-01-30 14:45:00+00:00
114624.04508911194,2025-02-02 16:30:00+00:00
115185.5714609005,2025-02-06 03:30:00+00:00
114185.5714609005,2025-02-06 11:15:00+00:00
115185.5714609005,2025-02-09 21:30:00+00:00
116185.5714609005,2025-02-11 01:30:00+00:00
115185.5714609005,2025-02-12 13:30:00+00:00
116185.5714609005,2025-02-14 08:00:00+00:00
115185.5714609005,2025-02-17 10:00:00+00:00
116185.5714609005,2025-02-18 05:30:00+00:00
116642.37169576513,2025-02-20 19:00:00+00:00
117642.37169576513,2025-02-21 09:00:00+00:00
116642.37169576513,2025-02-26 22:00:00+00:00
117642.37169576513,2025-02-27 20:45:00+00:00
116642.37169576513,2025-03-01 07:30:00+00:00
117642.37169576513,2025-03-01 10:15:00+00:00
118642.37169576513,2025-03-02 06:45:00+00:00
117642.37169576513,2025-03-04 14:30:00+00:00
118642.37169576513,2025-03-13 00:00:00+00:00
117642.37169576513,2025-03-13 12:45:00+00:00
118642.37169576513,2025-03-15 20:15:00+00:00
119642.37169576513,2025-03-18 23:15:00+00:00
118642.37169576513,2025-03-20 16:30:00+00:00
117642.37169576513,2025-03-21 23:30:00+00:00
118394.4835455089,2025-03-22 12:45:00+00:00
119394.4835455089,2025-03-22 23:00:00+00:00
118394.4835455089,2025-03-24 00:15:00+00:00
119394.4835455089,2025-03-24 05:30:00+00:00
120394.4835455089,2025-03-26 05:30:00+00:00
119394.4835455089,2025-03-27 11:15:00+00:00
120394.4835455089,2025-03-28 04:30:00+00:00
119394.4835455089,2025-03-29 03:00:00+00:00
119971.74938138615,2025-03-30 10:15:00+00:00
120971.74938138615,2025-03-30 14:00:00+00:00
119971.74938138615,2025-03-31 10:00:00+00:00
118971.74938138615,2025-04-02 02:00:00+00:00
119971.74938138615,2025-04-05 00:45:00+00:00
120971.74938138615,2025-04-09 01:00:00+00:00
121971.74938138615,2025-04-12 16:15:00+00:00
122971.74938138615,2025-04-13 13:45:00+00:00
121971.74938138615,2025-04-14 15:30:00+00:00
122600.45127192709,2025-04-15 05:30:00+00:00
121600.45127192709,2025-04-15 10:30:00+00:00
120600.45127192709,2025-04-16 17:45:00+00:00
121614.80151468344,2025-04-17 03:15:00+00:00
120614.80151468344,2025-04-17 05:15:00+00:00
121614.80151468344,2025-04-21 04:45:00+00:00
122614.80151468344,2025-04-22 13:00:00+00:00
123614.80151468344,2025-04-24 04:00:00+00:00
124614.80151468344,2025-04-25 10:15:00+00:00
123614.80151468344,2025-04-25 17:30:00+00:00
122614.80151468344,2025-04-29 21:00:00+00:00
123614.80151468344,2025-05-02 12:30:00+00:00
124614.80151468344,2025-05-03 17:00:00+00:00
123614.80151468344,2025-05-04 17:15:00+00:00
122614.80151468344,2025-05-04 20:15:00+00:00
121614.80151468344,2025-05-05 10:45:00+00:00
120614.80151468344,2025-05-06 07:00:00+00:00
121614.80151468344,2025-05-06 11:45:00+00:00
122614.80151468344,2025-05-07 07:45:00+00:00
123614.80151468344,2025-05-09 07:15:00+00:00
124614.80151468344,2025-05-10 17:45:00+00:00
125614.80151468344,2025-05-15 05:45:00+00:00
126614.80151468344,2025-05-16 22:15:00+00:00
127614.80151468344,2025-05-21 16:15:00+00:00
126614.80151468344,2025-05-22 22:30:00+00:00
127614.80151468344,2025-05-25 00:45:00+00:00
128614.80151468344,2025-05-25 09:30:00+00:00
129614.80151468344,2025-05-27 13:00:00+00:00
130614.80151468344,2025-05-28 10:00:00+00:00
131614.80151468344,2025-05-30 22:30:00+00:00
130614.80151468344,2025-06-01 04:45:00+00:00
129614.80151468344,2025-06-01 14:15:00+00:00
128614.80151468344,2025-06-02 02:00:00+00:00
129036.78606168134,2025-06-02 15:45:00+00:00
130036.78606168134,2025-06-02 21:00:00+00:00
129036.78606168134,2025-06-03 20:15:00+00:00
130036.78606168134,2025-06-05 16:15:00+00:00
131036.78606168134,2025-06-10 11:15:00+00:00
132036.78606168134,2025-06-12 20:45:00+00:00
131036.78606168134,2025-06-15 18:00:00+00:00
132036.78606168134,2025-06-17 14:30:00+00:00
131036.78606168134,2025-06-20 08:00:00+00:00
130036.78606168134,2025-06-23 12:30:00+00:00
131036.78606168134,2025-06-23 20:15:00+00:00
130036.78606168134,2025-06-24 18:15:00+00:00
129036.78606168134,2025-06-25 14:15:00+00:00
130036.78606168134,2025-06-26 13:45:00+00:00
129036.78606168134,2025-06-27 12:45:00+00:00
128036.78606168134,2025-06-27 16:30:00+00:00
127036.78606168134,2025-06-28 06:00:00+00:00
